Time(s),Lateral Error(m),Heading Error(deg),Heading angular velocity(deg),speed(m/s),delta(deg),Acc(m/s^20.085000,0.001344,-12.055527,-0.124854,0.173909,28.000000,24.000000
0.187000,0.045932,-12.141417,2.214209,0.582408,-28.000000,1.000000
0.289000,0.027591,-12.431222,2.469194,0.369601,-28.000000,-1.000000
0.428000,0.044358,-12.660240,1.934835,0.300029,-28.000000,0.000000
0.536000,0.060810,-12.850328,0.767148,0.381009,-28.000000,0.000000
0.680000,0.063732,-12.799603,-1.198961,0.348750,-28.000000,0.000000
0.788000,0.076185,-12.524932,-6.107040,0.748572,-26.000000,4.000000
0.920000,0.071560,-11.269302,-11.184494,1.033823,28.000000,0.000000
1.024000,0.074391,-10.350847,-7.298202,0.657179,28.000000,-1.000000
1.139000,0.075804,-9.495648,-5.656375,0.935393,13.000000,1.000000
1.276000,0.087379,-9.170812,-1.557653,0.698211,28.000000,-1.000000
1.388000,0.107238,-9.289661,2.648560,0.628501,28.000000,0.000000
1.524000,0.126415,-9.941270,6.517203,0.631153,28.000000,0.000000
1.632000,0.145672,-10.734740,7.793998,0.625753,28.000000,0.000000
1.763000,0.182994,-11.900374,8.524599,0.620111,28.000000,0.000000
1.879000,0.210460,-12.785611,8.792965,0.617478,28.000000,0.000000
1.989000,0.254577,-14.214354,11.815020,0.929249,-25.000000,1.000000
2.119000,0.297502,-15.385363,9.294017,0.979204,-14.000000,0.000000
2.227000,0.349830,-16.350963,3.587424,0.991372,-28.000000,0.000000
2.363000,0.380640,-16.543659,-1.451075,1.019416,-28.000000,-1.000000
2.471000,0.410014,-16.075017,-7.489147,0.962905,-28.000000,0.000000
2.603000,0.420952,-15.175012,-10.012943,0.950673,-28.000000,0.000000
2.711000,0.426553,-13.882924,-10.987988,1.003261,-20.000000,0.000000
2.855000,0.432067,-12.500313,-11.098830,1.007924,-20.000000,0.000000
2.967000,0.434115,-11.488696,-10.842575,0.969373,-28.000000,0.000000
3.077000,0.432851,-10.021276,-12.400905,0.936300,-28.000000,0.000000
3.214000,0.425321,-8.836913,-13.054674,0.930048,-28.000000,0.000000
3.326000,0.411336,-7.273226,-13.502291,0.925407,-28.000000,0.000000
3.466000,0.391488,-5.551753,-13.894271,0.929462,24.000000,1.000000
3.570000,0.376021,-4.310397,-12.479445,0.981199,24.000000,0.000000
3.710000,0.360905,-3.107609,-7.162984,0.975429,24.000000,0.000000
3.818000,0.357217,-2.751075,-3.445699,0.984683,-28.000000,0.000000
3.927000,0.359718,-2.519533,-3.814771,1.007193,-25.000000,0.000000
4.062000,0.354900,-2.116114,-7.434459,1.040416,-28.000000,0.000000
4.205000,0.327248,-0.722226,-12.100238,1.054030,-28.000000,0.000000
4.337000,0.305811,0.388778,-13.110114,1.046687,6.000000,0.000000
4.445000,0.276040,1.658691,-10.176840,0.998653,6.000000,0.000000
4.581000,0.258246,2.310786,-6.349503,0.983488,6.000000,0.000000
4.685000,0.240584,2.630979,-2.089637,0.990013,-22.000000,0.000000
4.821000,0.229159,2.823705,-4.277463,1.012430,-25.000000,0.000000
4.929000,0.213412,3.251369,-7.925178,1.043760,-25.000000,0.000000
5.073000,0.181924,4.158454,-11.307959,1.037601,-22.000000,0.000000
5.213000,0.141184,5.464630,-11.441259,1.019809,-22.000000,0.000000
5.321000,0.105009,6.800069,-11.581370,1.015127,20.000000,0.000000
5.460000,0.074747,7.629155,-9.313448,0.988819,20.000000,0.000000
5.568000,0.053055,8.072380,-6.607439,0.992056,-24.000000,0.000000
5.708000,0.042825,8.492638,-8.107991,1.026130,-24.000000,0.000000
5.808000,0.038749,9.437704,-10.273630,1.033294,-24.000000,0.000000
5.940000,0.074573,10.181915,-10.967838,1.029175,-24.000000,0.000000
6.047000,0.127050,11.340840,-11.389982,1.025726,-24.000000,0.000000
6.179000,0.166219,12.102029,-10.405019,1.009162,26.000000,0.000000
6.282000,0.217747,12.828144,-5.859771,0.986227,26.000000,0.000000
6.422000,0.250161,12.403790,-0.094000,1.003910,26.000000,0.000000
6.530000,0.267446,11.710252,5.063892,1.040199,26.000000,0.000000
6.647000,0.276750,10.171312,10.093105,1.047484,28.000000,0.000000
6.780000,0.273980,8.997399,4.135230,0.321657,18.000000,1.000000
6.885000,0.269865,7.551971,10.300378,0.901968,18.000000,1.000000
7.014000,0.267431,6.730031,4.661793,0.395322,28.000000,-1.000000
7.123000,0.259780,5.776584,2.966157,0.196330,28.000000,0.000000
7.262000,0.256234,5.495123,2.922202,0.193897,28.000000,0.000000
7.370000,0.253591,5.110061,3.030365,0.197884,28.000000,0.000000
7.510000,0.253289,4.814232,3.076055,0.199432,28.000000,0.000000
7.651000,0.242776,3.789709,3.111052,0.200355,-6.000000,0.000000
7.790000,0.235933,2.978617,10.769032,0.854453,9.000000,2.000000
7.894000,0.220139,1.401954,8.995936,0.976090,9.000000,0.000000
8.030000,0.201406,-0.470731,5.499572,0.992395,-6.000000,0.000000
8.177000,0.190656,-1.278179,1.139562,0.999011,-6.000000,0.000000
8.285000,0.193822,-1.550209,-1.342170,1.001571,-6.000000,0.000000
8.417000,0.193852,-1.862578,-2.252556,1.001857,24.000000,0.000000
8.525000,0.187174,-1.856720,-0.025219,1.003515,24.000000,0.000000
8.663000,0.179971,-2.194623,3.932125,1.027281,-6.000000,0.000000
8.765000,0.160915,-3.161114,7.363675,1.020506,-6.000000,0.000000
8.901000,0.143214,-3.887480,5.726524,0.995994,22.000000,0.000000
9.001000,0.121140,-4.654945,6.914208,1.017296,-8.000000,0.000000
9.137000,0.101307,-5.249730,6.033102,0.999317,-8.000000,0.000000
9.240000,0.072092,-5.665566,1.770988,0.997745,-8.000000,0.000000
9.380000,0.067028,-5.472827,-1.255884,1.002026,-8.000000,0.000000
9.497000,0.062890,-5.038465,-2.225659,0.999490,13.000000,0.000000
9.605000,0.052543,-4.346416,1.016861,1.005006,-6.000000,0.000000
9.744000,0.043762,-4.071523,0.511296,1.000350,-6.000000,0.000000
9.852000,0.027066,-3.544234,-1.623830,1.003123,-6.000000,0.000000
9.992000,0.026165,-2.853136,-2.427629,1.002694,-6.000000,0.000000
10.092000,0.053768,-1.958224,-2.998796,1.002023,-6.000000,0.000000
10.224000,0.055889,-0.444122,-3.238045,1.001633,-6.000000,0.000000
10.332000,0.036876,0.625569,-3.400976,1.001183,-6.000000,0.000000
10.467000,0.051682,1.671121,-3.162936,1.001790,-6.000000,0.000000
10.575000,0.061460,2.603883,-3.227019,1.001488,-6.000000,0.000000
10.707000,0.078625,4.202955,-3.246070,1.001579,-6.000000,0.000000
10.815000,0.090251,5.085361,-3.261006,1.001459,-6.000000,0.000000
10.931000,0.104560,6.059534,-3.271549,1.001568,-6.000000,0.000000
11.063000,0.121791,6.906528,-3.251776,1.001457,-6.000000,0.000000
11.169000,0.151654,7.846272,-3.247899,1.001264,-6.000000,0.000000
11.307000,0.171775,8.655693,-3.168074,1.001447,26.000000,0.000000
11.415000,0.198507,9.944123,-1.814785,0.999794,26.000000,0.000000
11.555000,0.216349,10.374715,1.682434,1.014705,26.000000,0.000000
11.655000,0.228645,10.121278,7.756266,1.052753,26.000000,0.000000
11.791000,0.231323,9.565146,10.311120,1.048496,26.000000,0.000000
11.895000,0.230492,8.746993,11.450118,1.019182,28.000000,-7.000000
12.034000,0.225796,7.992965,2.538581,0.241895,-19.000000,0.000000
12.142000,0.222656,7.792820,9.436489,0.795721,-19.000000,3.000000
12.278000,0.216024,6.977036,3.838867,0.315164,28.000000,-3.000000
12.386000,0.211797,6.648810,5.877948,0.549637,-14.000000,5.000000
12.495000,0.204075,5.832694,5.707625,0.528811,28.000000,-6.000000
12.626000,0.204020,5.462506,2.766572,0.225450,-19.000000,7.000000
12.733000,0.192828,4.791857,9.218577,0.924145,28.000000,1.000000
12.866000,0.186699,4.368995,3.746938,0.337425,28.000000,-1.000000
12.971000,0.183707,3.607601,8.752948,0.858037,-19.000000,3.000000
13.106000,0.172591,2.983852,6.413138,0.749967,28.000000,-6.000000
13.209000,0.162387,2.692007,1.922510,0.174679,28.000000,-2.000000
13.341000,0.159959,2.536493,1.291366,0.104469,28.000000,0.000000
13.446000,0.158132,2.355803,1.329790,0.099978,28.000000,0.000000
13.581000,0.157360,2.213944,1.383733,0.101075,28.000000,0.000000
13.685000,0.157218,2.018389,1.424003,0.101908,28.000000,0.000000
13.813000,0.157821,1.869136,1.438592,0.102164,28.000000,0.000000
13.923000,0.152402,1.849821,1.448814,0.102294,28.000000,0.000000
14.053000,0.147870,1.698683,1.452513,0.102329,28.000000,0.000000
14.160000,0.142706,1.496755,1.454909,0.102345,28.000000,0.000000
14.293000,0.139558,1.345152,1.455776,0.102348,28.000000,0.000000
14.399000,0.136411,1.142913,1.456511,0.102348,28.000000,0.000000
14.532000,0.134884,0.991195,1.456567,0.102349,28.000000,0.000000
14.637000,0.134062,0.752340,4.277102,0.312856,-5.000000,9.000000
14.776000,0.116548,0.109936,9.185852,0.889365,-28.000000,-8.000000
14.888000,0.113842,-0.346411,1.065233,0.152280,-28.000000,-1.000000
15.032000,0.104764,-0.433090,-1.168503,0.809913,-21.000000,3.000000
15.136000,0.110816,0.086996,-6.150886,1.015442,-21.000000,0.000000
15.268000,0.137188,1.228336,-8.553425,1.024296,20.000000,0.000000
15.372000,0.152743,2.087816,-6.799294,0.996650,20.000000,0.000000
15.487000,0.165138,2.787824,-1.620094,0.942167,28.000000,-2.000000
15.620000,0.168578,2.839907,0.275753,0.291141,28.000000,-1.000000
15.725000,0.171719,2.745818,1.433962,0.202620,28.000000,0.000000
15.868000,0.165541,2.573421,1.695478,0.175173,28.000000,0.000000
15.972000,0.161639,2.401362,1.128198,0.099593,28.000000,0.000000
16.103000,0.159764,2.282344,1.191376,0.097864,28.000000,0.000000
16.207000,0.158017,2.113820,1.250436,0.098926,28.000000,0.000000
16.339000,0.157353,1.982816,1.276697,0.099374,28.000000,0.000000
16.447000,0.157407,1.805250,1.297581,0.099659,28.000000,0.000000
16.583000,0.158171,1.670967,1.300899,0.099630,28.000000,0.000000
16.687000,0.153820,1.500437,1.302928,0.099666,28.000000,0.000000
16.823000,0.149368,1.365471,1.313382,0.099662,28.000000,0.000000
16.927000,0.144303,1.185294,1.310575,0.099662,28.000000,0.000000
17.062000,0.141219,1.050147,1.319946,0.099674,28.000000,0.000000
17.166000,0.138134,0.869852,1.317049,0.099668,28.000000,0.000000
17.298000,0.136637,0.734639,1.323353,0.099698,28.000000,0.000000
17.402000,0.135773,0.554308,1.320538,0.099688,28.000000,0.000000
17.538000,0.136223,0.373971,1.318957,0.099694,28.000000,0.000000
17.654000,0.137417,0.238704,1.314932,0.099781,28.000000,0.000000
17.765000,0.130412,0.048989,1.297680,0.099664,28.000000,0.000000
17.902000,0.125522,-0.086191,1.318521,0.099733,28.000000,0.000000
18.010000,0.112212,-0.726700,10.378772,0.813309,-5.000000,4.000000
18.146000,0.090452,-1.812574,8.814795,0.970337,-4.000000,0.000000
18.250000,0.079463,-2.649052,3.039857,0.996898,-22.000000,0.000000
18.381000,0.073412,-2.770435,-1.798617,1.022882,22.000000,0.000000
18.485000,0.075994,-2.424397,-3.271546,1.001775,22.000000,0.000000
18.621000,0.078277,-2.168936,-2.939387,1.000361,-17.000000,0.000000
18.725000,0.073389,-1.591428,-5.849277,1.018955,-17.000000,0.000000
18.861000,0.082515,-0.952143,-6.538704,1.011422,20.000000,0.000000
18.961000,0.094440,-0.273352,-3.111705,0.996489,20.000000,0.000000
19.101000,0.095409,-0.146552,0.917280,1.011064,28.000000,-7.000000
19.205000,0.087797,-0.460080,3.180514,0.301682,28.000000,-2.000000
19.345000,0.089310,-1.035371,7.817031,0.832616,-22.000000,3.000000
19.449000,0.076677,-1.844437,7.174080,0.977735,-4.000000,0.000000
19.581000,0.053713,-2.433047,2.516359,0.997246,-22.000000,0.000000
19.689000,0.052568,-2.389234,-2.124753,1.023842,-28.000000,-1.000000
19.805000,0.048713,-1.660006,-7.186225,0.859267,20.000000,0.000000
19.944000,0.066542,-0.643276,-9.544639,0.993906,20.000000,0.000000
20.052000,0.078854,0.557748,-6.176710,0.987625,20.000000,0.000000
20.188000,0.088482,1.097568,-2.749416,0.991822,-17.000000,0.000000
20.292000,0.098983,1.569442,-3.560299,1.005559,-17.000000,0.000000
20.428000,0.109858,2.168347,-5.711225,1.018633,-17.000000,0.000000
20.528000,0.137697,3.183139,-7.317642,1.015592,-17.000000,0.000000
20.664000,0.152268,3.986401,-5.629527,0.920311,28.000000,0.000000
20.768000,0.176190,4.736480,-4.508028,0.981893,-18.000000,0.000000
20.904000,0.197229,5.849852,-7.003030,1.018960,-18.000000,0.000000
21.011000,0.222285,6.786657,-7.848914,1.018431,-18.000000,0.000000
21.147000,0.255952,8.074945,-8.362339,1.015381,-18.000000,0.000000
21.255000,0.286356,9.130656,-8.523035,1.013949,-18.000000,0.000000
21.388000,0.327438,10.436975,-7.044502,0.995791,25.000000,0.000000
21.531000,0.365758,11.362922,-2.797320,0.994554,25.000000,0.000000
21.641000,0.394894,11.540638,3.737099,1.033558,25.000000,0.000000
21.775000,0.404805,11.136091,8.667439,1.060949,28.000000,0.000000
21.879000,0.404725,10.223035,11.431954,1.043909,-6.000000,0.000000
22.015000,0.404049,9.429000,9.482440,1.000072,14.000000,0.000000
22.127000,0.403967,8.549915,8.360294,0.997646,14.000000,0.000000
22.271000,0.404920,7.737073,7.570485,0.955393,28.000000,-8.000000
22.371000,0.403621,7.531750,3.635843,0.375081,28.000000,-1.000000
22.511000,0.399725,6.920796,9.835053,0.790219,28.000000,0.000000
22.614000,0.388965,5.939785,7.215037,0.508589,28.000000,-3.000000
22.745000,0.379643,5.411429,9.620142,0.719159,-10.000000,4.000000
22.853000,0.370282,4.690799,9.816939,0.962139,28.000000,-5.000000
22.990000,0.362618,3.863186,3.647175,0.348469,-10.000000,2.000000
23.134000,0.351942,3.328826,7.546148,0.941746,28.000000,-8.000000
23.238000,0.343527,3.024801,3.330430,0.348197,-10.000000,-1.000000
23.373000,0.338382,2.803112,7.363255,0.893997,-10.000000,1.000000
23.477000,0.328316,2.379505,3.768370,0.513696,28.000000,-5.000000
23.605000,0.322992,2.035614,4.714445,0.609511,-10.000000,5.000000
23.715000,0.314362,1.711052,3.829472,0.672651,28.000000,-7.000000
23.845000,0.312300,1.816330,3.017763,0.356071,-10.000000,8.000000
23.953000,0.303118,1.550726,5.027791,0.911091,28.000000,-5.000000
24.085000,0.295866,1.199201,2.658834,0.365949,28.000000,0.000000
24.191000,0.287947,1.083909,6.703386,0.855285,-10.000000,4.000000
24.333000,0.280573,0.916000,3.981526,0.546007,28.000000,-4.000000
24.437000,0.272816,0.615946,2.503740,0.246801,-10.000000,9.000000
24.569000,0.266139,0.432037,8.231184,0.904240,-10.000000,1.000000
24.677000,0.245924,-0.043499,5.011922,0.990291,-10.000000,0.000000
24.820000,0.239345,0.090611,1.170725,0.407952,28.000000,-2.000000
24.925000,0.237444,-0.038245,2.027939,0.774861,-10.000000,3.000000
25.056000,0.236294,0.338381,0.256929,0.506528,28.000000,-4.000000
25.164000,0.236610,0.859013,0.220256,0.311057,-10.000000,9.000000
25.279000,0.234416,1.162183,2.260644,0.955416,28.000000,1.000000
25.416000,0.232030,1.054458,0.708655,0.378138,28.000000,-1.000000
25.524000,0.228926,1.400587,3.859998,0.826185,-10.000000,3.000000
25.664000,0.224694,1.583232,1.581186,0.655802,28.000000,-6.000000
25.776000,0.228875,1.456548,1.037926,0.326791,28.000000,0.000000
25.891000,0.221309,1.816053,2.449370,0.313076,28.000000,0.000000
26.019000,0.217173,1.489341,3.612731,0.312844,-10.000000,0.000000
26.129000,0.201359,1.113646,9.367462,0.941643,28.000000,1.000000
26.258000,0.192102,1.042895,4.657187,0.422588,28.000000,-1.000000
26.367000,0.182624,0.494336,4.002376,0.307668,28.000000,0.000000
26.495000,0.180805,0.691212,6.517767,0.499657,-10.000000,6.000000
26.605000,0.157438,0.072797,7.647130,0.742892,28.000000,-8.000000
26.739000,0.142745,-0.462313,4.143003,0.343433,-10.000000,8.000000
26.843000,0.122449,-0.888664,9.356626,0.954594,-10.000000,1.000000
26.979000,0.106484,-1.020924,6.444905,0.985608,-10.000000,0.000000
27.091000,0.101603,-0.865586,2.519035,0.994142,20.000000,0.000000
27.227000,0.090337,0.166889,4.395726,1.015597,20.000000,0.000000
27.339000,0.078830,0.311106,6.829862,1.020877,-5.000000,0.000000
27.455000,0.065201,0.273885,4.416070,0.995104,-5.000000,0.000000
27.587000,0.062655,0.778546,1.294156,0.997582,-5.000000,0.000000
27.693000,0.072975,2.407444,-0.913309,1.000130,28.000000,0.000000
27.822000,0.082119,3.331848,-0.552254,0.744934,28.000000,0.000000
27.931000,0.085669,4.106929,2.141542,0.714698,28.000000,0.000000
28.062000,0.075553,3.700573,6.241241,0.844130,26.000000,1.000000
28.169000,0.065455,4.202457,10.823326,1.031826,16.000000,0.000000
28.302000,0.052374,4.059234,9.850901,1.004865,16.000000,0.000000
28.407000,0.036227,3.732225,8.897223,1.001590,16.000000,0.000000
28.546000,0.032205,3.799007,8.542246,1.003089,16.000000,0.000000
28.658000,0.037910,4.570937,9.283674,1.021670,26.000000,0.000000
28.794000,0.009040,4.125144,10.752692,1.017087,-17.000000,0.000000
28.910000,0.017482,4.152874,8.204793,0.988496,-17.000000,0.000000
29.019000,0.043010,5.439861,2.742281,0.992114,-6.000000,0.000000
29.153000,0.036182,6.345284,-0.025238,0.998217,10.000000,0.000000
29.257000,0.013532,7.439510,0.235532,0.999983,26.000000,0.000000
29.397000,0.026041,8.327075,3.325578,1.018814,26.000000,0.000000
29.505000,0.054411,9.611900,8.848389,1.052120,26.000000,0.000000
29.641000,0.030140,9.216528,10.771662,1.025717,-13.000000,0.000000
29.753000,0.029570,9.161265,8.487586,0.991348,-13.000000,0.000000
29.888000,0.055355,9.225244,3.368419,0.990564,-13.000000,0.000000
29.989000,0.068303,9.944753,-0.920236,1.007581,-13.000000,0.000000
30.125000,0.086128,11.767607,-3.158426,0.998228,27.000000,0.000000
30.233000,0.110185,12.612333,-0.442981,1.001155,27.000000,0.000000
30.345000,0.134456,12.914964,5.197917,1.038623,27.000000,0.000000
30.480000,0.146049,12.695114,9.336120,1.057324,17.000000,0.000000
30.583000,0.156668,12.263826,9.752607,1.013317,17.000000,0.000000
30.720000,0.160542,11.681722,9.503832,1.002791,17.000000,0.000000
30.832000,0.160848,10.762471,9.035371,1.004653,17.000000,0.000000
30.968000,0.163765,10.134370,8.793527,1.006299,17.000000,0.000000
31.068000,0.169619,9.171098,8.651071,1.007737,17.000000,0.000000
31.204000,0.170424,8.459407,8.599390,1.008384,17.000000,0.000000
31.308000,0.168250,7.478493,8.558196,1.008829,17.000000,0.000000
31.448000,0.162934,6.497587,5.036958,0.447071,28.000000,0.000000
31.556000,0.158278,6.081466,3.097913,0.240930,28.000000,0.000000
31.688000,0.159748,5.489818,7.898328,0.663824,20.000000,1.000000
31.796000,0.148562,4.519935,10.276284,0.974050,28.000000,-1.000000
31.909000,0.133345,3.475126,4.757066,0.353041,25.000000,0.000000
32.047000,0.121436,2.474194,11.163335,0.916648,25.000000,0.000000
32.159000,0.098334,0.824638,7.233353,0.505998,28.000000,0.000000
32.295000,0.089291,-0.395840,11.204842,0.836948,25.000000,0.000000
32.406000,0.072657,-1.936761,12.430207,0.967614,-28.000000,0.000000
32.521000,0.054000,-3.009365,5.739247,0.537827,-28.000000,0.000000
32.650000,0.023229,-3.882121,4.351956,0.757524,-28.000000,0.000000
32.759000,0.015953,-4.505883,-0.685548,0.811926,-28.000000,0.000000
32.898000,0.010314,-4.572830,-5.729244,0.847524,-28.000000,0.000000
33.006000,0.020004,-4.031545,-7.948991,0.759169,28.000000,0.000000
33.146000,0.034118,-3.827275,-6.344828,0.695858,28.000000,0.000000
33.290000,0.032524,-3.685715,-1.995321,0.692620,28.000000,0.000000
33.405000,0.026932,-4.354671,2.214114,0.758496,-28.000000,0.000000
33.538000,0.033803,-5.369257,3.400655,0.796047,-28.000000,0.000000
33.643000,0.009191,-6.366022,0.431749,0.993784,-28.000000,0.000000
33.785000,0.016257,-6.919275,-2.558750,1.012488,-28.000000,0.000000
33.891000,0.038188,-7.005514,-6.581049,1.036939,24.000000,1.000000
34.025000,0.042203,-6.828720,-8.946439,1.033087,24.000000,0.000000
34.125000,0.033771,-7.096125,-5.918929,0.995025,16.000000,0.000000
34.257000,0.042237,-7.339471,-1.206807,0.638832,-28.000000,-1.000000
34.369000,0.030943,-7.265922,-0.736757,0.300709,-12.000000,3.000000
34.501000,0.038043,-7.547726,-5.252117,0.912194,-28.000000,0.000000
34.605000,0.038691,-7.547047,-2.034644,0.385489,-28.000000,-1.000000
34.745000,0.060009,-7.027766,-7.920041,0.853316,-12.000000,1.000000
34.857000,0.049789,-6.861340,-6.048496,0.771201,28.000000,0.000000
34.969000,0.049152,-6.935752,-1.848567,0.697024,28.000000,0.000000
35.108000,0.044207,-7.500944,1.516893,0.716050,-28.000000,-2.000000
35.220000,0.068397,-8.234577,0.638083,0.218336,-28.000000,0.000000
35.360000,0.076147,-8.412485,0.732577,0.765675,-28.000000,-1.000000
35.473000,0.077255,-8.937265,-1.163993,0.277884,-28.000000,0.000000
35.581000,0.083131,-8.584639,-5.871495,0.772650,24.000000,3.000000
35.712000,0.082896,-8.476558,-6.392072,0.979541,24.000000,0.000000
35.819000,0.098908,-8.954015,-2.255428,1.000347,24.000000,0.000000
35.956000,0.113222,-9.474911,2.041109,1.022898,-19.000000,0.000000
36.064000,0.138749,-10.574378,5.322175,1.007511,-27.000000,0.000000
36.196000,0.165525,-11.507004,2.869947,0.996954,-27.000000,0.000000
36.303000,0.195114,-12.077998,-2.287983,1.020149,-27.000000,0.000000
